||CHANNELNAMES||	"PL-A"
450 0.00139533637865929
452.008032128514 -0.00341510680309932
454.016064257028 0.00204154700796051
456.024096385542 -0.00111599890681052
458.032128514056 0.00232292216672325
460.04016064257 -0.0022308773525912
462.048192771084 0.000595175520918017
464.056224899598 0.000308974329881104
466.064257028112 0.00179660441670139
468.072289156626 -0.00163984951886199
470.080321285141 0.00264705125991055
472.088353413655 0.00204377090776076
474.096385542169 -0.000264479902258451
476.104417670683 0.00141328042954362
478.112449799197 0.00309290668137467
480.120481927711 0.0012719453565372
482.128514056225 -0.00314506573214549
484.136546184739 0.00261233149091709
486.144578313253 0.000846030633315281
488.152610441767 0.00277324110163934
490.160642570281 0.00108461782304314
492.168674698795 0.00245796942204993
494.176706827309 -0.002791642586163
496.184738955823 0.00132361248508597
498.192771084337 0.00626608844898253
500.200803212851 0.00147249989004374
502.208835341365 -0.00821551843922531
504.21686746988 0.00152543454465018
506.224899598394 0.000594347117272775
508.232931726908 -0.00386915498299056
510.240963855422 -0.00217478867057598
512.248995983936 -0.00321023676773284
514.25702811245 0.00306672727000239
516.265060240964 -0.000521225251981604
518.273092369478 0.00244182423808274
520.281124497992 0.000832108959064401
522.289156626506 0.00429943706637837
524.29718875502 0.00287289820959705
526.305220883534 0.00108079001809156
528.313253012048 0.000707878367072964
530.321285140562 0.00486302368720632
532.329317269076 0.00284022350390318
534.33734939759 -0.000117312152882169
536.345381526104 0.00287188391892102
538.353413654619 0.00333787144945473
540.361445783133 0.0072491416494566
542.369477911647 -0.00228136446084023
544.377510040161 0.00493231787699056
546.385542168675 0.00762914479949343
548.393574297189 0.00686887137156771
550.401606425703 0.0108658135255494
552.409638554217 0.0096839189507455
554.417670682731 0.0140782810205905
556.425702811245 0.0148550966317647
558.433734939759 0.0162924945046966
560.441767068273 0.0230536194435867
562.449799196787 0.0291619931350971
564.457831325301 0.0265412802767338
566.465863453815 0.0336946351184167
568.473895582329 0.0421508962921372
570.481927710843 0.050741690624394
572.489959839357 0.0542931154457376
574.497991967871 0.0606153077208424
576.506024096386 0.0699020900087472
578.5140562249 0.0823359223942475
580.522088353414 0.088663184268297
582.530120481928 0.106096991594767
584.538152610442 0.121757318664567
586.546184738956 0.131616362358208
588.55421686747 0.150162511209796
590.562248995984 0.162905609380527
592.570281124498 0.185863042469465
594.578313253012 0.198991021050919
596.586345381526 0.220916308855618
598.59437751004 0.245886775414518
600.602409638554 0.262069943108969
602.610441767068 0.284028276295885
604.618473895582 0.312403772629041
606.626506024096 0.337695377847877
608.634538152611 0.361466859423942
610.642570281125 0.391588331163758
612.650602409639 0.41637308362971
614.658634538153 0.441182627880838
616.666666666667 0.467457068278961
618.674698795181 0.49371339522213
620.682730923695 0.51919153749805
622.690763052209 0.533163901023108
624.698795180723 0.546196012358222
626.706827309237 0.560585323896548
628.714859437751 0.570518827260534
630.722891566265 0.578404865169043
632.730923694779 0.575340334578703
634.738955823293 0.57542716379619
636.746987951807 0.567890497448027
638.755020080321 0.554990617400714
640.763052208835 0.537914928517021
642.771084337349 0.525400992797413
644.779116465863 0.505871327889617
646.787148594378 0.482498471082518
648.795180722892 0.465381852452254
650.803212851406 0.443989126878873
652.81124497992 0.432861105392732
654.819277108434 0.413885096898493
656.827309236948 0.397954502911939
658.835341365462 0.380443867445144
660.843373493976 0.374147846908492
662.85140562249 0.36902812554214
664.859437751004 0.361511059824879
666.867469879518 0.366125004964568
668.875502008032 0.363431085476324
670.883534136546 0.367791813213811
672.89156626506 0.376922575731248
674.899598393574 0.380766254758986
676.907630522088 0.382423727079984
678.915662650602 0.394792833362395
680.923694779116 0.402112952166578
682.93172690763 0.409501733239941
684.939759036145 0.410758220069084
686.947791164659 0.413288445160153
688.955823293173 0.421659104826827
690.963855421687 0.417442508802476
692.971887550201 0.418962676380844
694.979919678715 0.415839842987992
696.987951807229 0.416400666702454
698.995983935743 0.408808403305059
701.004016064257 0.394606846861939
703.012048192771 0.397158631467948
705.020080321285 0.385698191833013
707.028112449799 0.378595160331695
709.036144578313 0.36944843197945
711.044176706827 0.361472978972164
713.052208835341 0.351022990990568
715.060240963855 0.337266906527434
717.06827309237 0.326356135448483
719.076305220884 0.317358211559324
721.084337349398 0.315494399723174
723.092369477912 0.297345849616863
725.100401606426 0.286340708128959
727.10843373494 0.272655630889697
729.116465863454 0.272897850860326
731.124497991968 0.261827143419149
733.132530120482 0.250426015773168
735.140562248996 0.245240456427384
737.14859437751 0.23681959527461
739.156626506024 0.233491887590699
741.164658634538 0.229678998298368
743.172690763052 0.223977852011381
745.180722891566 0.212070019105671
747.18875502008 0.216490805588195
749.196787148594 0.204174738881039
751.204819277109 0.196884422232861
753.212851405623 0.19822766202044
755.220883534137 0.197317206455364
757.228915662651 0.191198342934243
759.236947791165 0.181445219746618
761.244979919679 0.183518469979994
763.253012048193 0.178329745108328
765.261044176707 0.1764715071424
767.269076305221 0.16623045270696
769.277108433735 0.158766927164147
771.285140562249 0.162634994961285
773.293172690763 0.153989962157729
775.301204819277 0.148156571578726
777.309236947791 0.138891237609248
779.317269076305 0.139564628827797
781.325301204819 0.132335058648266
783.333333333333 0.131466499992561
785.341365461847 0.125717057391839
787.349397590361 0.122209523459004
789.357429718875 0.11253585325212
791.36546184739 0.10880070212444
793.373493975904 0.10536263646471
795.381526104418 0.0971245060065959
797.389558232932 0.100429618601508
799.397590361446 0.0905891842423345
801.40562248996 0.0890095675287727
803.413654618474 0.0838389480736403
805.421686746988 0.0704461350539831
807.429718875502 0.0766909568997654
809.437751004016 0.0679538154851238
811.44578313253 0.0641917627537631
813.453815261044 0.0643441571687626
815.461847389558 0.0548747269985114
817.469879518072 0.0554861399866367
819.477911646586 0.0434215177467988
821.4859437751 0.0394538269490801
823.493975903614 0.0470453174031022
825.502008032129 0.0386346068803196
827.510040160643 0.0342561364687355
829.518072289157 0.0359203916680282
831.526104417671 0.0293517938193397
833.534136546185 0.0332456866658526
835.542168674699 0.0256347620876461
837.550200803213 0.0247249874568554
839.558232931727 0.0221604726519839
841.566265060241 0.0206655713411232
843.574297188755 0.0199669555533409
845.582329317269 0.00862221841413872
847.590361445783 0.0163595404608236
849.598393574297 0.0123019764896064
851.606425702811 0.0102781131158063
853.614457831325 0.00835509254362423
855.622489959839 0.00952434180865414
857.630522088353 0.00623158679863121
859.638554216868 0.0093916227170533
861.646586345382 0.0136847473174448
863.654618473896 0.000614140793427365
865.66265060241 0.00430817015308003
867.670682730924 0.00675321398006249
869.678714859438 0.0031898504332082
871.686746987952 0.00128953726452239
873.694779116466 0.00808302820704657
875.70281124498 -7.71644160111557E-05
877.710843373494 0.000731686640396475
879.718875502008 -0.00132703097774134
881.726907630522 -0.00129386070804672
883.734939759036 -0.00440228344114218
885.74297188755 -0.00664864931424459
887.751004016064 -0.000741180868535991
889.759036144578 0.00351562250721154
891.767068273092 -0.000327602706056115
893.775100401606 -0.00130409993956533
895.783132530121 0.00475680905578107
897.791164658635 0.00385868968747951
899.799196787149 0.00149921005289272
901.807228915663 -0.00550280639778515
903.815261044177 0.00545610138731147
905.823293172691 -0.00154717780457717
907.831325301205 0.00363729985288983
909.839357429719 0.00217811037448768
911.847389558233 0.00357263115100461
913.855421686747 -0.00110232247856788
915.863453815261 -0.000938998758067747
917.871485943775 0.00109287309983433
919.879518072289 -0.00250031442572357
921.887550200803 -0.00148025639338703
923.895582329317 -0.00112965008266245
925.903614457831 -0.00494963770399454
927.911646586345 0.00482872651797429
929.919678714859 0.00158245970526754
931.927710843373 0.000714636227763454
933.935742971888 0.0074603071161478
935.943775100402 0.00071847365709258
937.951807228916 -0.00140193131326481
939.95983935743 0.00362446040889976
941.967871485944 0.00500843294096529
943.975903614458 0.000186740348735702
945.983935742972 0.00708253633933588
947.991967871486 0.00417468158721875
950 -0.000272184319902976
