||CHANNELNAMES||	"PL-B"
450 0.00062560015412271
452.008032128514 -7.73374802810832E-05
454.016064257028 -0.00284930302110416
456.024096385542 0.00239789641383122
458.032128514056 -0.00354589651858625
460.04016064257 -0.00398957002379689
462.048192771084 -0.00246226336555522
464.056224899598 -0.00408742912361554
466.064257028112 0.00129678773287249
468.072289156626 -0.00434571443832534
470.080321285141 -0.00102214043963346
472.088353413655 0.000405719602497587
474.096385542169 -0.0067508790661535
476.104417670683 0.00148415920677322
478.112449799197 0.00193122562394593
480.120481927711 0.00449345056437727
482.128514056225 0.000982470421019223
484.136546184739 -0.00436182393843572
486.144578313253 -0.000338248891794018
488.152610441767 -0.00332809321362867
490.160642570281 0.00537112446182675
492.168674698795 0.00140406920920944
494.176706827309 -0.00405353042387293
496.184738955823 -0.00152609221112579
498.192771084337 0.00114958991969086
500.200803212851 0.000538433845484022
502.208835341365 -0.000406129972999652
504.21686746988 0.00177884368683666
506.224899598394 0.00173226407983046
508.232931726908 0.00156146403405227
510.240963855422 -0.00258667473664545
512.248995983936 0.000465042621276364
514.25702811245 -0.00145315790144279
516.265060240964 0.000949519189911309
518.273092369478 0.00216772534207732
520.281124497992 -0.00226034938273371
522.289156626506 0.0032750438153771
524.29718875502 -0.00224078556519764
526.305220883534 -2.13759866594691E-05
528.313253012048 -0.00184102285088539
530.321285140562 0.0026803818986079
532.329317269076 -0.0031293304518566
534.33734939759 3.82431755065601E-05
536.345381526104 0.0056494625233348
538.353413654619 0.00472964025861018
540.361445783133 -0.00154844895144475
542.369477911647 -0.00284289371577617
544.377510040161 0.00206929974302242
546.385542168675 0.0022558163499748
548.393574297189 0.00581887679311408
550.401606425703 0.00311873020836549
552.409638554217 0.00211116537226982
554.417670682731 -0.00111948829721218
556.425702811245 0.00410834166306142
558.433734939759 -0.000574810472721389
560.441767068273 -0.000100311203090402
562.449799196787 0.00264927599916146
564.457831325301 0.00359553017193829
566.465863453815 0.000484596263492611
568.473895582329 0.00339091659082216
570.481927710843 0.000615381930027511
572.489959839357 0.00125650463850665
574.497991967871 0.00069636433624451
576.506024096386 0.000316654729237976
578.5140562249 0.00504851001615038
580.522088353414 0.0081697646045516
582.530120481928 0.000275695027223488
584.538152610442 0.00788890537703605
586.546184738956 0.00943981957447707
588.55421686747 0.00762958888755515
590.562248995984 0.0101143576771735
592.570281124498 0.0147583667612942
594.578313253012 0.010570906852302
596.586345381526 0.0131054918445867
598.59437751004 0.0167381672644967
600.602409638554 0.0232719759688426
602.610441767068 0.0337275886413672
604.618473895582 0.0305293592348774
606.626506024096 0.0352524827310601
608.634538152611 0.044109971113898
610.642570281125 0.0498767002670782
612.650602409639 0.0538097980057963
614.658634538153 0.0657591581800286
616.666666666667 0.0776251257175357
618.674698795181 0.084637223026813
620.682730923695 0.0923039489324963
622.690763052209 0.107472374151005
624.698795180723 0.119006723195503
626.706827309237 0.134659785478209
628.714859437751 0.146627582279029
630.722891566265 0.164324193361677
632.730923694779 0.179932047483116
634.738955823293 0.205407509382928
636.746987951807 0.227929569621282
638.755020080321 0.24656321711211
640.763052208835 0.266923820806731
642.771084337349 0.289440663803891
644.779116465863 0.317946421818524
646.787148594378 0.346893586534641
648.795180722892 0.374899642199966
650.803212851406 0.404192767283236
652.81124497992 0.427490576929492
654.819277108434 0.44884073950773
656.827309236948 0.47616278939794
658.835341365462 0.502318714742195
660.843373493976 0.520516542370034
662.85140562249 0.529304512878345
664.859437751004 0.549294203859979
666.867469879518 0.564199414199184
668.875502008032 0.575727674674991
670.883534136546 0.572654839741794
672.89156626506 0.57127443549681
674.899598393574 0.567382099631047
676.907630522088 0.559833059012866
678.915662650602 0.545057734703096
680.923694779116 0.52869019526341
682.93172690763 0.510612297156872
684.939759036145 0.480212350840134
686.947791164659 0.450999272492482
688.955823293173 0.418849898248159
690.963855421687 0.390784545506322
692.971887550201 0.36382386653239
694.979919678715 0.336992477580932
696.987951807229 0.314778281209478
698.995983935743 0.295874907679965
701.004016064257 0.284337485565586
703.012048192771 0.273000094001209
705.020080321285 0.265986667383343
707.028112449799 0.280570513623934
709.036144578313 0.280558331182338
711.044176706827 0.295671183684817
713.052208835341 0.314107713113077
715.060240963855 0.321574128359737
717.06827309237 0.343354705999984
719.076305220884 0.356067268322475
721.084337349398 0.372373231475265
723.092369477912 0.3895803436513
725.100401606426 0.400191504813043
727.10843373494 0.409481850938129
729.116465863454 0.409931165313474
731.124497991968 0.418553373307829
733.132530120482 0.414726830665693
735.140562248996 0.409426880628291
737.14859437751 0.415851055585716
739.156626506024 0.405027504659613
741.164658634538 0.399890454638736
743.172690763052 0.388657114194481
745.180722891566 0.381509229774295
747.18875502008 0.369125563859425
749.196787148594 0.360816529326748
751.204819277109 0.350048675087569
753.212851405623 0.339636300309553
755.220883534137 0.330274770812229
757.228915662651 0.317002867922939
759.236947791165 0.316919281269999
761.244979919679 0.304796806419948
763.253012048193 0.292584804616218
765.261044176707 0.28659520067469
767.269076305221 0.279229236905527
769.277108433735 0.267806042671626
771.285140562249 0.263407096254125
773.293172690763 0.254563654512426
775.301204819277 0.247140740167435
777.309236947791 0.241443085761834
779.317269076305 0.234655305765078
781.325301204819 0.222074957341179
783.333333333333 0.222361480300088
785.341365461847 0.218983573015616
787.349397590361 0.212520947769595
789.357429718875 0.20970767737358
791.36546184739 0.206125451372752
793.373493975904 0.195583692092718
795.381526104418 0.192558000758423
797.389558232932 0.191379506622095
799.397590361446 0.182320650562887
801.40562248996 0.18215162775131
803.413654618474 0.176453348399296
805.421686746988 0.17312234177803
807.429718875502 0.163816291022941
809.437751004016 0.161250221597651
811.44578313253 0.162139365670721
813.453815261044 0.153437699111652
815.461847389558 0.144418236004403
817.469879518072 0.14257601948578
819.477911646586 0.140547446132943
821.4859437751 0.134901218001991
823.493975903614 0.129209532946194
825.502008032129 0.126004746311264
827.510040160643 0.118816750848767
829.518072289157 0.112818027788179
831.526104417671 0.107333150030184
833.534136546185 0.104512549234216
835.542168674699 0.0986258441679865
837.550200803213 0.0969581502477022
839.558232931727 0.0909107117997279
841.566265060241 0.0906534002824696
843.574297188755 0.0775704596636395
845.582329317269 0.0782204339429175
847.590361445783 0.0697014459395414
849.598393574297 0.0649498316616028
851.606425702811 0.063982740678485
853.614457831325 0.0596768548272309
855.622489959839 0.0549399641823942
857.630522088353 0.0553465266373213
859.638554216868 0.0511435789259464
861.646586345382 0.0440858469283871
863.654618473896 0.0440915236863863
865.66265060241 0.0362588213939774
867.670682730924 0.0367775289244167
869.678714859438 0.033956579125369
871.686746987952 0.0331909415074435
873.694779116466 0.0261037197733675
875.70281124498 0.0252938712191072
877.710843373494 0.0247820336015142
879.718875502008 0.0194153961383587
881.726907630522 0.0173730375354905
883.734939759036 0.00855215503599735
885.74297188755 0.00999650280947884
887.751004016064 0.0117795922465783
889.759036144578 0.0100321952198825
891.767068273092 0.0101905061649654
893.775100401606 0.00575548833225624
895.783132530121 0.00999865409305368
897.791164658635 0.00635127363446931
899.799196787149 0.00570769761309037
901.807228915663 0.000213378247837818
903.815261044177 0.00624353295502319
905.823293172691 0.00401997761754535
907.831325301205 0.000474558959302824
909.839357429719 0.00395401567125081
911.847389558233 0.00140290344582607
913.855421686747 0.00330310061076679
915.863453815261 0.00403277611100397
917.871485943775 0.000714433915226327
919.879518072289 -0.000232267693305481
921.887550200803 0.00361452259331422
923.895582329317 0.00127171145223775
925.903614457831 0.00106775921481098
927.911646586345 -0.00156777961433617
929.919678714859 0.00077668850817666
931.927710843373 0.000332409508895363
933.935742971888 0.00661711160019744
935.943775100402 -0.00384578866447602
937.951807228916 0.00743426821781919
939.95983935743 -0.000931346254282298
941.967871485944 -0.0034402079115208
943.975903614458 -0.00397798096252688
945.983935742972 0.00058716625299262
947.991967871486 0.00031203261890061
950 0.00190070551140368
